Motion Through Fluids Experiment Mon, Sep 23, 2024 8:33 PM
Time(sec)	Position(mm)
0.012	17.905
0.062	18.117
0.112	18.329
0.162	18.754
0.212	18.966
0.262	19.178
0.312	19.390
0.362	19.602
0.412	19.814
0.462	20.026
0.512	20.237
0.562	20.449
0.612	20.661
0.662	20.661
0.712	20.873
0.762	21.084
0.812	21.296
0.862	21.507
0.912	21.719
0.962	21.930
1.012	22.142
1.062	22.353
1.112	22.564
1.162	22.564
1.212	22.775
1.262	22.987
1.312	22.987
1.362	23.198
1.412	23.409
1.462	23.620
1.512	23.831
1.562	24.042
1.612	24.042
1.662	24.253
1.712	24.464
1.762	24.674
1.812	24.674
1.862	24.885
1.912	25.096
1.962	25.307
2.012	25.517
2.062	25.517
2.112	25.728
2.162	25.938
2.212	26.149
2.262	26.359
2.312	26.570
2.362	26.780
2.412	26.780
2.462	26.990
2.512	26.990
2.562	27.201
2.612	27.411
2.662	27.621
2.712	27.621
2.762	27.831
2.812	28.041
2.862	28.251
2.912	28.462
2.962	28.462
3.012	28.671
3.062	28.881
3.112	28.881
3.162	29.091
3.212	29.301
3.262	29.301
3.312	29.511
3.362	29.721
3.412	29.721
3.462	29.930
3.512	30.140
3.562	30.350
3.612	30.350
3.662	30.559
3.712	30.769
3.762	30.769
3.812	30.978
3.862	31.188
3.912	31.397
3.962	31.397
4.012	31.607
4.062	31.816
4.112	31.816
4.162	32.025
4.212	32.234
4.262	32.234
4.312	32.444
4.362	32.653
4.412	32.862
4.462	32.862
4.512	33.071
4.562	33.280
4.612	33.280
4.662	33.489
4.712	33.489
4.762	33.698
4.812	33.907
4.862	33.907
4.912	34.116
4.962	34.325
5.012	34.325
5.062	34.533
5.112	34.742
5.162	34.742
5.212	34.951
5.262	35.159
5.312	35.159
5.362	35.368
5.412	35.577
5.462	35.577
5.512	35.785
5.562	35.994
5.612	36.202
5.662	36.410
5.712	36.410
5.763	36.619
5.812	36.619
5.862	36.827
5.912	36.827
5.962	37.036
6.012	37.244
6.062	37.244
6.112	37.452
6.162	37.660
6.212	37.660
6.262	37.868
6.312	38.076
6.362	38.076
6.412	38.284
6.462	38.284
6.512	38.492
6.562	38.700
6.612	38.700
6.662	38.908
6.712	39.116
6.762	39.116
6.812	39.324
6.862	39.532
6.912	39.532
6.963	39.740
7.012	39.740
7.063	39.947
7.112	40.155
7.162	40.155
7.212	40.363
7.262	40.570
7.312	40.570
7.362	40.778
7.412	40.986
7.462	40.986
7.512	41.193
7.562	41.193
7.612	41.401
7.662	41.608
7.712	41.608
7.762	41.815
7.812	42.023
7.862	42.023
7.912	42.230
7.962	42.230
8.012	42.437
8.062	42.646
8.112	42.645
8.162	42.852
8.212	42.852
8.262	43.059
8.312	43.266
8.362	43.266
8.412	43.473
8.462	43.680
8.512	43.680
8.562	43.887
8.613	43.887
8.662	44.094
8.712	44.301
8.762	44.301
8.812	44.508
8.862	44.717
8.912	44.715
8.962	44.922
9.012	44.922
9.062	45.129
9.112	45.335
9.162	45.335
9.212	45.542
9.262	45.542
9.312	45.749
9.362	45.955
9.412	45.955
9.462	46.162
9.512	46.162
9.562	46.370
9.612	46.575
9.662	46.575
9.712	46.782
9.762	46.988
9.812	46.988
9.862	47.195
9.912	47.195
9.962	47.401
10.012	47.607
10.062	47.607
10.112	47.814
10.162	47.814
10.212	48.020
10.262	48.226
10.312	48.226
10.362	48.432
10.412	48.432
10.462	48.640
10.512	48.845
10.562	48.845
10.612	49.051
10.662	49.051
10.712	49.259
10.762	49.463
10.812	49.463
10.862	49.669
10.912	49.669
10.962	49.877
11.012	50.081
11.062	50.083
11.112	50.287
11.162	50.288
11.212	50.494
11.262	50.494
11.312	50.700
11.362	50.904
11.412	50.906
11.462	51.112
11.512	51.112
11.562	51.317
11.612	51.521
11.662	51.523
11.712	51.729
11.762	51.729
11.812	51.934
11.862	52.140
11.912	52.140
11.962	52.346
12.012	52.346
12.062	52.551
12.112	52.757
12.162	52.757
12.212	52.962
12.262	52.962
12.312	53.167
12.362	53.166
12.412	53.373
12.462	53.578
12.512	53.578
12.562	53.784
12.612	53.784
12.662	53.989
12.712	54.194
12.762	54.194
12.812	54.399
12.862	54.399
12.912	54.605
12.962	54.605
13.012	54.810
13.062	55.015
13.112	55.015
13.162	55.220
13.212	55.220
13.262	55.425
13.312	55.630
13.362	55.630
13.412	55.835
13.462	55.835
13.512	56.040
13.562	56.040
13.612	56.245
13.662	56.450
13.712	56.450
13.762	56.655
13.812	56.655
13.862	56.859
13.912	57.064
13.962	57.064
14.012	57.269
14.062	57.269
14.112	57.474
14.162	57.474
14.212	57.678
14.262	57.883
14.312	57.883
14.362	58.088
14.412	58.088
14.462	58.292
14.512	58.292
14.562	58.497
14.612	58.497
14.662	58.701
14.712	58.701
14.762	58.906
14.812	59.110
14.862	59.110
14.912	59.315
14.962	59.315
15.012	59.519
15.062	59.519
15.112	59.724
15.162	59.928
15.212	59.928
15.262	60.132
15.312	60.132
15.362	60.337
15.412	60.337
15.462	60.541
15.512	60.745
15.562	60.745
15.612	60.949
15.662	60.949
15.712	61.154
15.762	61.154
15.812	61.358
15.862	61.358
15.912	61.562
15.962	61.766
16.012	61.766
16.062	61.970
16.112	61.970
16.162	62.174
16.212	62.174
16.262	62.378
16.312	62.582
16.362	62.582
16.412	62.786
16.462	62.786
16.512	62.990
16.562	62.990
16.612	63.194
16.662	63.194
16.712	63.397
16.762	63.601
16.812	63.601
16.862	63.805
16.912	63.805
16.962	64.009
17.012	64.009
17.062	64.212
17.112	64.212
17.162	64.416
17.212	64.620
17.262	64.620
17.312	64.823
17.362	64.823
17.412	65.027
17.462	65.027
17.512	65.231
17.562	65.231
17.612	65.434
17.662	65.434
17.712	65.638
17.762	65.638
17.812	65.841
17.862	66.045
17.912	66.045
17.962	66.248
18.012	66.248
18.062	66.451
18.112	66.451
18.162	66.655
18.212	66.655
18.262	66.858
18.312	67.061
18.362	67.061
18.412	67.265
18.462	67.265
18.512	67.468
18.562	67.468
18.612	67.671
18.662	67.671
18.712	67.874
18.762	67.874
18.812	68.078
18.862	68.281
18.912	68.281
18.962	68.484
19.012	68.484
19.062	68.687
19.112	68.687
19.162	68.890
19.212	68.890
19.262	69.093
19.312	69.093
19.362	69.296
19.412	69.499
19.462	69.499
19.512	69.702
19.562	69.702
19.612	69.905
19.662	69.905
19.712	70.108
19.762	70.108
19.812	70.311
19.862	70.311
19.912	70.513
19.962	70.513
20.012	70.716
20.062	70.919
20.112	70.919
20.162	71.122
20.212	71.122
20.262	71.324
20.312	71.324
20.362	71.527
20.412	71.527
20.462	71.730
20.512	71.730
20.562	71.933
20.612	72.135
20.662	72.135
20.712	72.338
20.762	72.338
20.812	72.540
20.862	72.540
20.912	72.743
20.962	72.743
21.013	72.945
21.062	72.945
21.112	73.148
21.162	73.148
21.212	73.350
21.263	73.350
21.312	73.553
21.362	73.553
21.412	73.755
21.462	73.755
21.512	73.958
21.562	74.160
21.612	74.160
21.662	74.362
21.712	74.362
21.762	74.564
21.812	74.564
21.862	74.767
21.912	74.767
21.962	74.969
22.012	74.969
22.062	75.171
22.112	75.171
22.162	75.373
22.212	75.373
22.262	75.576
22.312	75.576
22.362	75.778
22.412	75.980
22.462	75.980
22.512	76.182
22.562	76.182
22.612	76.384
22.662	76.384
22.712	76.586
22.762	76.586
22.812	76.788
22.862	76.788
22.912	76.990
22.962	76.990
23.012	77.192
23.062	77.192
23.112	77.394
23.162	77.394
23.212	77.596
23.262	77.596
23.312	77.798
23.362	78.000
23.412	78.000
23.462	78.202
23.512	78.202
23.562	78.403
23.612	78.403
23.662	78.605
23.712	78.605
23.762	78.807
23.812	78.807
23.862	79.009
23.912	79.009
23.962	79.210
24.012	79.210
24.062	79.412
24.112	79.412
24.162	79.614
24.212	79.815
24.262	79.815
24.312	79.815
24.362	80.017
24.412	80.017
24.462	80.219
24.512	80.219
24.562	80.420
24.612	80.420
24.662	80.622
24.712	80.823
24.762	80.823
24.812	81.025
24.862	81.025
24.912	81.226
24.962	81.226
25.012	81.428
25.062	81.428
25.112	81.629
25.162	81.629
25.212	81.831
25.262	81.831
25.312	82.032
25.362	82.032
25.412	82.233
25.462	82.233
25.512	82.435
25.562	82.435
25.612	82.636
25.662	82.636
25.712	82.837
25.762	82.837
25.812	83.039
25.862	83.039
25.912	83.240
25.962	83.240
26.012	83.441
26.062	83.441
26.112	83.642
26.162	83.843
26.212	83.843
26.262	83.843
26.312	84.045
26.362	84.246
26.412	84.246
26.462	84.447
26.512	84.447
26.562	84.648
26.612	84.648
26.662	84.849
26.712	84.849
26.762	85.050
26.812	85.050
26.862	85.251
26.912	85.251
26.962	85.452
27.012	85.452
27.062	85.653
27.112	85.653
27.162	85.854
27.212	85.854
27.262	86.055
27.312	86.055
27.362	86.256
27.412	86.256
27.462	86.457
27.512	86.457
27.562	86.658
27.612	86.658
27.662	86.858
27.712	86.858
27.762	87.059
27.812	87.059
27.862	87.260
27.912	87.260
27.962	87.461
28.012	87.461
28.062	87.661
28.112	87.661
28.162	87.862
28.212	87.862
28.262	88.063
28.312	88.063
28.362	88.264
28.412	88.264
28.462	88.464
28.512	88.464
28.562	88.665
28.612	88.665
28.662	88.866
28.712	88.866
28.762	89.066
28.812	89.066
28.862	89.267
28.912	89.267
28.963	89.467
29.012	89.467
29.062	89.668
29.112	89.668
29.162	89.868
29.212	89.868
29.262	90.069
29.312	90.069
29.362	90.269
29.412	90.269
29.462	90.470
29.512	90.470
29.562	90.670
29.612	90.670
29.662	90.871
29.712	90.871
29.762	91.071
29.812	91.071
29.862	91.271
29.912	91.271
29.962	91.472
30.012	91.472
30.062	91.672
30.112	91.672
30.162	91.872
30.212	91.872
30.262	92.073
30.312	92.073
30.362	92.273
30.412	92.273
30.462	92.473
30.512	92.473
30.562	92.673
30.612	92.673
30.662	92.874
30.712	92.874
30.762	93.074
30.812	93.074
30.862	93.274
30.912	93.274
30.962	93.474
31.012	93.474
31.062	93.676
31.112	93.674
31.162	93.874
31.212	93.874
31.262	94.074
31.312	94.074
31.362	94.276
31.412	94.274
31.462	94.476
31.512	94.475
31.562	94.675
31.612	94.675
31.662	94.876
31.712	94.875
31.762	95.076
31.812	95.075
31.862	95.275
31.912	95.275
31.962	95.474
32.012	95.474
32.062	95.676
32.112	95.674
32.162	95.874
32.212	95.874
32.262	96.074
32.312	96.074
32.362	96.274
32.412	96.274
32.462	96.474
32.512	96.474
32.562	96.675
32.612	96.674
32.662	96.875
32.712	96.874
32.762	97.075
32.812	97.073
32.862	97.275
32.912	97.273
32.962	97.474
33.012	97.473
33.062	97.674
33.112	97.673
33.162	97.874
33.212	97.872
33.262	98.074
33.312	98.072
33.362	98.273
33.412	98.272
33.462	98.473
33.512	98.471
33.562	98.673
33.612	98.671
33.662	98.671
33.712	98.871
33.762	99.072
33.812	99.070
33.862	99.070
33.912	99.270
33.962	99.270
34.012	99.470
34.062	99.470
34.112	99.669
34.162	99.669
34.212	99.869
34.262	99.869
34.312	100.068
34.362	100.068
34.412	100.269
34.462	100.268
34.512	100.469
34.562	100.467
34.612	100.668
34.662	100.667
34.712	100.868
34.762	100.866
34.812	101.067
34.862	101.066
34.912	101.266
34.962	101.265
35.012	101.466
35.062	101.464
35.112	101.665
35.162	101.664
35.212	101.865
35.262	101.863
35.312	102.064
35.362	102.062
35.412	102.064
35.462	102.262
35.512	102.262
35.562	102.462
35.612	102.461
35.662	102.662
35.712	102.660
35.762	102.861
35.812	102.860
35.862	103.060
35.912	103.059
35.962	103.260
36.012	103.258
36.062	103.459
36.112	103.457
36.162	103.658
36.212	103.657
36.262	103.857
36.312	103.856
36.362	104.056
36.412	104.055
36.462	104.256
36.512	104.254
36.562	104.455
36.612	104.453
36.662	104.654
36.713	104.652
36.762	104.853
36.812	104.851
36.862	105.052
36.912	105.052
36.962	105.251
37.012	105.251
37.062	105.251
37.112	105.450
37.162	105.450
37.212	105.649
37.262	105.649
37.312	105.848
37.362	105.847
37.412	106.047
37.462	106.046